# T=2600K log(g)=-0.50 M/M(sol)=02.0 Z/Z(sol)=1.00 C/O=2.00 xi=2.5km/s v4 - Parameters used for this model - (Suitable parameters chosen from initial GRAMS fit)
#3 columns: wl - wavelength [Å]; F/F(Cont) - continuum normalized flux (normalized to calculation without atomic and molecular line opacities); νL(ν) - frequency times specific luminosity [erg/s]

   4448.920   0.0424 0.3761E+36
   4451.144   0.0442 0.3922E+36
   4453.370   0.0457 0.4061E+36
   4455.596   0.0468 0.4170E+36
   4457.824   0.0476 0.4241E+36
   4460.053   0.0478 0.4271E+36
   4462.283   0.0476 0.4258E+36
   4464.514   0.0470 0.4209E+36
   4466.747   0.0460 0.4132E+36
   4468.980   0.0449 0.4041E+36
   4471.214   0.0437 0.3949E+36
   4473.450   0.0427 0.3867E+36
   4475.687   0.0418 0.3803E+36
   4477.925   0.0412 0.3757E+36
   4480.164   0.0407 0.3725E+36
   4482.404   0.0403 0.3700E+36
   4484.645   0.0399 0.3672E+36
   4486.887   0.0393 0.3632E+36
   4489.131   0.0386 0.3576E+36
   4491.375   0.0377 0.3502E+36
   4493.621   0.0366 0.3413E+36
   4495.868   0.0355 0.3317E+36
   4498.116   0.0344 0.3221E+36
   4500.365   0.0333 0.3133E+36
   4502.615   0.0324 0.3059E+36
   4504.866   0.0317 0.3003E+36
   4507.119   0.0312 0.2967E+36
   4509.372   0.0309 0.2948E+36
   4511.627   0.0307 0.2943E+36
   4513.883   0.0307 0.2947E+36
   4516.140   0.0307 0.2955E+36
   4518.398   0.0307 0.2963E+36
   4520.657   0.0306 0.2968E+36
   4522.917   0.0306 0.2971E+36
   4525.179   0.0305 0.2971E+36
   4527.441   0.0304 0.2971E+36
   4529.705   0.0303 0.2975E+36
   4531.970   0.0303 0.2987E+36
   4534.236   0.0304 0.3009E+36
   4536.503   0.0307 0.3044E+36
   4538.771   0.0311 0.3093E+36
   4541.041   0.0316 0.3157E+36
   4543.311   0.0323 0.3235E+36
   4545.583   0.0331 0.3326E+36
   4547.855   0.0340 0.3430E+36
   4550.129   0.0351 0.3546E+36
   4552.404   0.0362 0.3676E+36
   4554.681   0.0375 0.3815E+36
   4556.958   0.0388 0.3959E+36
   4559.237   0.0400 0.4100E+36
   4561.516   0.0411 0.4223E+36
   4563.797   0.0419 0.4315E+36
   4566.079   0.0423 0.4362E+36
   4568.362   0.0421 0.4351E+36
   4570.646   0.0413 0.4277E+36
   4572.931   0.0400 0.4145E+36
   4575.218   0.0381 0.3963E+36
   4577.505   0.0360 0.3750E+36
   4579.794   0.0337 0.3524E+36
   4582.084   0.0316 0.3306E+36
   4584.375   0.0296 0.3112E+36
   4586.667   0.0280 0.2953E+36
   4588.961   0.0267 0.2831E+36
   4591.255   0.0258 0.2745E+36
   4593.551   0.0252 0.2686E+36
   4595.847   0.0247 0.2645E+36
   4598.145   0.0243 0.2613E+36
   4600.444   0.0240 0.2580E+36
   4602.745   0.0235 0.2541E+36
   4605.046   0.0230 0.2491E+36
   4607.349   0.0224 0.2430E+36
   4609.652   0.0217 0.2356E+36
   4611.957   0.0208 0.2270E+36
   4614.263   0.0199 0.2171E+36
   4616.570   0.0188 0.2060E+36
   4618.879   0.0177 0.1939E+36
   4621.188   0.0164 0.1808E+36
   4623.499   0.0151 0.1670E+36
   4625.810   0.0138 0.1529E+36
   4628.123   0.0125 0.1388E+36
   4630.437   0.0113 0.1251E+36
   4632.752   0.0101 0.1120E+36
   4635.069   0.0089 0.9971E+35
   4637.386   0.0079 0.8834E+35
   4639.705   0.0069 0.7795E+35
   4642.025   0.0061 0.6853E+35
   4644.346   0.0053 0.6005E+35
   4646.668   0.0046 0.5253E+35
   4648.991   0.0040 0.4592E+35
   4651.316   0.0035 0.4023E+35
   4653.642   0.0031 0.3542E+35
   4655.968   0.0027 0.3141E+35
   4658.296   0.0025 0.2817E+35
   4660.626   0.0022 0.2558E+35
   4662.956   0.0020 0.2354E+35
   4665.287   0.0019 0.2193E+35
   4667.620   0.0018 0.2065E+35
   4669.954   0.0017 0.1966E+35
   4672.289   0.0016 0.1889E+35
   4674.625   0.0016 0.1832E+35
   4676.962   0.0015 0.1795E+35
   4679.301   0.0015 0.1779E+35
   4681.640   0.0015 0.1788E+35
   4683.981   0.0015 0.1824E+35
   4686.323   0.0016 0.1891E+35
   4688.666   0.0016 0.1988E+35
   4691.011   0.0017 0.2116E+35
   4693.356   0.0019 0.2276E+35
   4695.703   0.0020 0.2465E+35
   4698.051   0.0022 0.2680E+35
   4700.400   0.0024 0.2917E+35
   4702.750   0.0026 0.3184E+35
   4705.101   0.0028 0.3476E+35
   4707.454   0.0031 0.3809E+35
   4709.808   0.0034 0.4205E+35
   4712.162   0.0038 0.4705E+35
   4714.519   0.0043 0.5359E+35
   4716.876   0.0050 0.6246E+35
   4719.234   0.0059 0.7456E+35
   4721.594   0.0072 0.9087E+35
   4723.955   0.0089 0.1126E+36
   4726.317   0.0110 0.1405E+36
   4728.680   0.0137 0.1755E+36
   4731.044   0.0170 0.2180E+36
   4733.410   0.0209 0.2680E+36
   4735.776   0.0253 0.3250E+36
   4738.144   0.0301 0.3881E+36
   4740.513   0.0353 0.4558E+36
   4742.884   0.0408 0.5267E+36
   4745.255   0.0463 0.5988E+36
   4747.628   0.0517 0.6704E+36
   4750.001   0.0570 0.7398E+36
   4752.376   0.0619 0.8056E+36
   4754.753   0.0665 0.8661E+36
   4757.130   0.0705 0.9206E+36
   4759.509   0.0740 0.9678E+36
   4761.888   0.0769 0.1007E+37
   4764.269   0.0791 0.1039E+37
   4766.651   0.0807 0.1062E+37
   4769.035   0.0818 0.1078E+37
   4771.419   0.0823 0.1089E+37
   4773.805   0.0826 0.1095E+37
   4776.192   0.0827 0.1098E+37
   4778.580   0.0827 0.1102E+37
   4780.969   0.0829 0.1107E+37
   4783.360   0.0832 0.1115E+37
   4785.751   0.0839 0.1128E+37
   4788.144   0.0849 0.1144E+37
   4790.538   0.0862 0.1164E+37
   4792.934   0.0876 0.1188E+37
   4795.330   0.0893 0.1213E+37
   4797.728   0.0910 0.1239E+37
   4800.127   0.0927 0.1266E+37
   4802.527   0.0943 0.1291E+37
   4804.928   0.0959 0.1316E+37
   4807.330   0.0973 0.1339E+37
   4809.734   0.0986 0.1360E+37
   4812.139   0.0997 0.1379E+37
   4814.545   0.1006 0.1395E+37
   4816.952   0.1012 0.1406E+37
   4819.361   0.1013 0.1411E+37
   4821.770   0.1009 0.1409E+37
   4824.181   0.0999 0.1397E+37
   4826.593   0.0981 0.1375E+37
   4829.007   0.0956 0.1342E+37
   4831.421   0.0923 0.1299E+37
   4833.837   0.0884 0.1247E+37
   4836.254   0.0842 0.1190E+37
   4838.672   0.0798 0.1131E+37
   4841.091   0.0756 0.1074E+37
   4843.512   0.0719 0.1024E+37
   4845.934   0.0689 0.9853E+36
   4848.357   0.0669 0.9600E+36
   4850.781   0.0660 0.9498E+36
   4853.206   0.0661 0.9554E+36
   4855.633   0.0673 0.9759E+36
   4858.061   0.0694 0.1010E+37
   4860.490   0.0722 0.1054E+37
   4862.920   0.0756 0.1106E+37
   4865.351   0.0793 0.1164E+37
   4867.784   0.0832 0.1223E+37
   4870.218   0.0871 0.1283E+37
   4872.653   0.0908 0.1342E+37
   4875.089   0.0944 0.1398E+37
   4877.527   0.0978 0.1452E+37
   4879.966   0.1011 0.1504E+37
   4882.406   0.1041 0.1552E+37
   4884.847   0.1069 0.1598E+37
   4887.289   0.1094 0.1639E+37
   4889.733   0.1115 0.1674E+37
   4892.178   0.1129 0.1698E+37
   4894.624   0.1134 0.1709E+37
   4897.071   0.1129 0.1704E+37
   4899.520   0.1111 0.1681E+37
   4901.969   0.1081 0.1639E+37
   4904.420   0.1040 0.1579E+37
   4906.873   0.0989 0.1505E+37
   4909.326   0.0932 0.1420E+37
   4911.781   0.0871 0.1330E+37
   4914.237   0.0810 0.1240E+37
   4916.694   0.0751 0.1152E+37
   4919.152   0.0696 0.1070E+37
   4921.612   0.0647 0.9971E+36
   4924.073   0.0603 0.9330E+36
   4926.535   0.0567 0.8788E+36
   4928.998   0.0536 0.8343E+36
   4931.462   0.0512 0.7995E+36
   4933.928   0.0495 0.7742E+36
   4936.395   0.0483 0.7585E+36
   4938.863   0.0477 0.7519E+36
   4941.333   0.0477 0.7540E+36
   4943.803   0.0482 0.7636E+36
   4946.275   0.0490 0.7793E+36
   4948.748   0.0501 0.7989E+36
   4951.223   0.0513 0.8200E+36
   4953.698   0.0525 0.8398E+36
   4956.175   0.0534 0.8556E+36
   4958.653   0.0538 0.8646E+36
   4961.133   0.0537 0.8649E+36
   4963.613   0.0530 0.8550E+36
   4966.095   0.0517 0.8342E+36
   4968.578   0.0497 0.8031E+36
   4971.062   0.0471 0.7629E+36
   4973.548   0.0441 0.7156E+36
   4976.035   0.0409 0.6641E+36
   4978.523   0.0375 0.6112E+36
   4981.012   0.0343 0.5602E+36
   4983.502   0.0314 0.5137E+36
   4985.994   0.0289 0.4738E+36
   4988.487   0.0268 0.4420E+36
   4990.981   0.0254 0.4190E+36
   4993.477   0.0244 0.4044E+36
   4995.974   0.0239 0.3974E+36
   4998.472   0.0238 0.3963E+36
   5000.971   0.0238 0.3988E+36
   5003.471   0.0240 0.4027E+36
   5005.973   0.0241 0.4056E+36
   5008.476   0.0241 0.4054E+36
   5010.980   0.0238 0.4006E+36
   5013.486   0.0231 0.3906E+36
   5015.993   0.0222 0.3756E+36
   5018.501   0.0211 0.3565E+36
   5021.010   0.0197 0.3349E+36
   5023.520   0.0184 0.3124E+36
   5026.032   0.0171 0.2907E+36
   5028.545   0.0159 0.2712E+36
   5031.059   0.0149 0.2548E+36
   5033.575   0.0141 0.2419E+36
   5036.092   0.0135 0.2325E+36
   5038.610   0.0131 0.2265E+36
   5041.129   0.0129 0.2234E+36
   5043.650   0.0128 0.2231E+36
   5046.171   0.0129 0.2253E+36
   5048.694   0.0132 0.2302E+36
   5051.219   0.0136 0.2378E+36
   5053.744   0.0141 0.2484E+36
   5056.271   0.0148 0.2619E+36
   5058.799   0.0157 0.2781E+36
   5061.329   0.0167 0.2964E+36
   5063.859   0.0178 0.3158E+36
   5066.391   0.0188 0.3350E+36
   5068.925   0.0198 0.3525E+36
   5071.459   0.0205 0.3668E+36
   5073.995   0.0211 0.3767E+36
   5076.532   0.0213 0.3814E+36
   5079.070   0.0212 0.3806E+36
   5081.610   0.0209 0.3744E+36
   5084.150   0.0202 0.3637E+36
   5086.692   0.0194 0.3495E+36
   5089.236   0.0185 0.3331E+36
   5091.780   0.0175 0.3156E+36
   5094.326   0.0164 0.2980E+36
   5096.873   0.0155 0.2812E+36
   5099.422   0.0146 0.2657E+36
   5101.972   0.0138 0.2521E+36
   5104.523   0.0131 0.2406E+36
   5107.075   0.0126 0.2317E+36
   5109.628   0.0123 0.2258E+36
   5112.183   0.0121 0.2234E+36
   5114.739   0.0121 0.2249E+36
   5117.297   0.0124 0.2303E+36
   5119.855   0.0129 0.2395E+36
   5122.415   0.0135 0.2517E+36
   5124.976   0.0142 0.2658E+36
   5127.539   0.0149 0.2802E+36
   5130.103   0.0156 0.2934E+36
   5132.668   0.0162 0.3038E+36
   5135.234   0.0165 0.3107E+36
   5137.802   0.0166 0.3140E+36
   5140.371   0.0166 0.3147E+36
   5142.941   0.0166 0.3150E+36
   5145.512   0.0167 0.3181E+36
   5148.085   0.0172 0.3277E+36
   5150.659   0.0182 0.3483E+36
   5153.234   0.0200 0.3836E+36
   5155.811   0.0226 0.4369E+36
   5158.389   0.0264 0.5104E+36
   5160.968   0.0312 0.6046E+36
   5163.549   0.0370 0.7187E+36
   5166.130   0.0436 0.8501E+36
   5168.713   0.0510 0.9947E+36
   5171.298   0.0588 0.1148E+37
   5173.883   0.0666 0.1303E+37
   5176.470   0.0742 0.1454E+37
   5179.059   0.0813 0.1594E+37
   5181.648   0.0876 0.1718E+37
   5184.239   0.0927 0.1822E+37
   5186.831   0.0967 0.1903E+37
   5189.425   0.0995 0.1961E+37
   5192.019   0.1012 0.1998E+37
   5194.615   0.1021 0.2019E+37
   5197.213   0.1025 0.2031E+37
   5199.811   0.1028 0.2041E+37
   5202.411   0.1033 0.2056E+37
   5205.012   0.1044 0.2081E+37
   5207.615   0.1060 0.2118E+37
   5210.219   0.1082 0.2167E+37
   5212.824   0.1107 0.2222E+37
   5215.430   0.1131 0.2276E+37
   5218.038   0.1152 0.2321E+37
   5220.647   0.1164 0.2349E+37
   5223.257   0.1164 0.2353E+37
   5225.869   0.1152 0.2331E+37
   5228.482   0.1126 0.2283E+37
   5231.096   0.1090 0.2213E+37
   5233.712   0.1046 0.2128E+37
   5236.328   0.0998 0.2034E+37
   5238.947   0.0950 0.1940E+37
   5241.566   0.0905 0.1851E+37
   5244.187   0.0864 0.1772E+37
   5246.809   0.0829 0.1703E+37
   5249.432   0.0798 0.1643E+37
   5252.057   0.0770 0.1590E+37
   5254.683   0.0744 0.1540E+37
   5257.310   0.0719 0.1490E+37
   5259.939   0.0693 0.1439E+37
   5262.569   0.0667 0.1388E+37
   5265.200   0.0643 0.1340E+37
   5267.833   0.0622 0.1299E+37
   5270.467   0.0606 0.1270E+37
   5273.102   0.0598 0.1255E+37
   5275.739   0.0597 0.1258E+37
   5278.376   0.0606 0.1279E+37
   5281.016   0.0622 0.1316E+37
   5283.656   0.0644 0.1367E+37
   5286.298   0.0672 0.1428E+37
   5288.941   0.0702 0.1497E+37
   5291.586   0.0734 0.1568E+37
   5294.231   0.0767 0.1640E+37
   5296.879   0.0797 0.1709E+37
   5299.527   0.0825 0.1771E+37
   5302.177   0.0849 0.1825E+37
   5304.828   0.0867 0.1867E+37
   5307.480   0.0878 0.1894E+37
   5310.134   0.0882 0.1905E+37
   5312.789   0.0878 0.1900E+37
   5315.445   0.0868 0.1882E+37
   5318.103   0.0854 0.1854E+37
   5320.762   0.0837 0.1820E+37
   5323.423   0.0820 0.1787E+37
   5326.084   0.0805 0.1759E+37
   5328.747   0.0795 0.1740E+37
   5331.412   0.0790 0.1733E+37
   5334.077   0.0789 0.1736E+37
   5336.744   0.0793 0.1747E+37
   5339.413   0.0798 0.1761E+37
   5342.083   0.0802 0.1774E+37
   5344.754   0.0804 0.1781E+37
   5347.426   0.0801 0.1779E+37
   5350.100   0.0794 0.1766E+37
   5352.775   0.0782 0.1743E+37
   5355.451   0.0766 0.1710E+37
   5358.129   0.0747 0.1670E+37
   5360.808   0.0726 0.1626E+37
   5363.488   0.0704 0.1580E+37
   5366.170   0.0682 0.1532E+37
   5368.853   0.0659 0.1484E+37
   5371.538   0.0637 0.1436E+37
   5374.223   0.0614 0.1386E+37
   5376.910   0.0590 0.1336E+37
   5379.599   0.0567 0.1286E+37
   5382.289   0.0544 0.1235E+37
   5384.980   0.0521 0.1185E+37
   5387.672   0.0499 0.1139E+37
   5390.366   0.0480 0.1097E+37
   5393.061   0.0463 0.1061E+37
   5395.758   0.0449 0.1031E+37
   5398.456   0.0437 0.1006E+37
   5401.155   0.0427 0.9848E+36
   5403.856   0.0419 0.9664E+36
   5406.557   0.0410 0.9485E+36
   5409.261   0.0401 0.9295E+36
   5411.965   0.0391 0.9086E+36
   5414.671   0.0381 0.8856E+36
   5417.379   0.0370 0.8611E+36
   5420.087   0.0358 0.8362E+36
   5422.797   0.0347 0.8123E+36
   5425.509   0.0338 0.7909E+36
   5428.222   0.0330 0.7738E+36
   5430.936   0.0324 0.7619E+36
   5433.651   0.0321 0.7565E+36
   5436.368   0.0321 0.7578E+36
   5439.086   0.0323 0.7659E+36
   5441.806   0.0329 0.7805E+36
   5444.527   0.0336 0.8005E+36
   5447.249   0.0346 0.8244E+36
   5449.973   0.0356 0.8505E+36
   5452.698   0.0366 0.8768E+36
   5455.424   0.0376 0.9016E+36
   5458.152   0.0385 0.9239E+36
   5460.881   0.0392 0.9433E+36
   5463.611   0.0399 0.9604E+36
   5466.343   0.0405 0.9765E+36
   5469.076   0.0411 0.9927E+36
   5471.811   0.0417 0.1010E+37
   5474.547   0.0423 0.1028E+37
   5477.284   0.0430 0.1045E+37
   5480.022   0.0435 0.1059E+37
   5482.762   0.0438 0.1067E+37
   5485.504   0.0437 0.1067E+37
   5488.247   0.0432 0.1056E+37
   5490.991   0.0423 0.1036E+37
   5493.736   0.0410 0.1006E+37
   5496.483   0.0395 0.9700E+36
   5499.231   0.0379 0.9313E+36
   5501.981   0.0363 0.8934E+36
   5504.732   0.0348 0.8590E+36
   5507.484   0.0335 0.8300E+36
   5510.238   0.0325 0.8071E+36
   5512.993   0.0318 0.7903E+36
   5515.750   0.0313 0.7793E+36
   5518.507   0.0310 0.7737E+36
   5521.267   0.0309 0.7731E+36
   5524.027   0.0310 0.7775E+36
   5526.789   0.0313 0.7865E+36
   5529.553   0.0318 0.7993E+36
   5532.318   0.0323 0.8146E+36
   5535.084   0.0329 0.8301E+36
   5537.851   0.0333 0.8430E+36
   5540.620   0.0336 0.8504E+36
   5543.391   0.0335 0.8497E+36
   5546.162   0.0331 0.8401E+36
   5548.935   0.0323 0.8219E+36
   5551.710   0.0313 0.7974E+36
   5554.486   0.0302 0.7708E+36
   5557.263   0.0293 0.7476E+36
   5560.041   0.0287 0.7341E+36
   5562.821   0.0287 0.7363E+36
   5565.603   0.0295 0.7596E+36
   5568.386   0.0313 0.8076E+36
   5571.170   0.0340 0.8812E+36
   5573.955   0.0377 0.9787E+36
   5576.742   0.0421 0.1095E+37
   5579.531   0.0470 0.1224E+37
   5582.321   0.0519 0.1354E+37
   5585.112   0.0565 0.1476E+37
   5587.904   0.0604 0.1579E+37
   5590.698   0.0632 0.1654E+37
   5593.494   0.0648 0.1697E+37
   5596.290   0.0651 0.1705E+37
   5599.089   0.0640 0.1679E+37
   5601.888   0.0619 0.1624E+37
   5604.689   0.0589 0.1547E+37
   5607.491   0.0554 0.1457E+37
   5610.295   0.0517 0.1362E+37
   5613.100   0.0481 0.1270E+37
   5615.907   0.0450 0.1190E+37
   5618.715   0.0425 0.1126E+37
   5621.524   0.0408 0.1083E+37
   5624.335   0.0400 0.1067E+37
   5627.147   0.0403 0.1077E+37
   5629.961   0.0417 0.1117E+37
   5632.776   0.0441 0.1185E+37
   5635.592   0.0476 0.1281E+37
   5638.410   0.0519 0.1401E+37
   5641.229   0.0571 0.1543E+37
   5644.050   0.0628 0.1702E+37
   5646.872   0.0691 0.1873E+37
   5649.695   0.0755 0.2052E+37
   5652.520   0.0821 0.2232E+37
   5655.346   0.0884 0.2408E+37
   5658.174   0.0944 0.2574E+37
   5661.003   0.0998 0.2723E+37
   5663.833   0.1043 0.2851E+37
   5666.665   0.1080 0.2955E+37
   5669.499   0.1107 0.3033E+37
   5672.333   0.1125 0.3085E+37
   5675.170   0.1135 0.3117E+37
   5678.007   0.1139 0.3135E+37
   5680.846   0.1141 0.3145E+37
   5683.687   0.1144 0.3157E+37
   5686.528   0.1149 0.3176E+37
   5689.372   0.1158 0.3207E+37
   5692.216   0.1172 0.3251E+37
   5695.062   0.1190 0.3307E+37
   5697.910   0.1210 0.3369E+37
   5700.759   0.1230 0.3431E+37
   5703.609   0.1247 0.3483E+37
   5706.461   0.1258 0.3519E+37
   5709.314   0.1260 0.3528E+37
   5712.169   0.1250 0.3505E+37
   5715.025   0.1228 0.3445E+37
   5717.883   0.1192 0.3349E+37
   5720.742   0.1144 0.3218E+37
   5723.602   0.1086 0.3058E+37
   5726.464   0.1021 0.2879E+37
   5729.327   0.0953 0.2691E+37
   5732.192   0.0886 0.2506E+37
   5735.058   0.0824 0.2334E+37
   5737.925   0.0770 0.2185E+37
   5740.794   0.0726 0.2064E+37
   5743.665   0.0692 0.1972E+37
   5746.536   0.0668 0.1907E+37
   5749.410   0.0652 0.1866E+37
   5752.284   0.0642 0.1841E+37
   5755.161   0.0635 0.1824E+37
   5758.038   0.0629 0.1808E+37
   5760.917   0.0621 0.1788E+37
   5763.798   0.0611 0.1761E+37
   5766.680   0.0597 0.1725E+37
   5769.563   0.0582 0.1682E+37
   5772.448   0.0565 0.1636E+37
   5775.334   0.0548 0.1590E+37
   5778.222   0.0533 0.1548E+37
   5781.111   0.0520 0.1512E+37
   5784.001   0.0509 0.1485E+37
   5786.893   0.0503 0.1468E+37
   5789.787   0.0499 0.1461E+37
   5792.682   0.0499 0.1463E+37
   5795.578   0.0502 0.1475E+37
   5798.476   0.0508 0.1495E+37
   5801.375   0.0518 0.1526E+37
   5804.276   0.0531 0.1567E+37
   5807.178   0.0547 0.1619E+37
   5810.081   0.0568 0.1681E+37
   5812.986   0.0591 0.1754E+37
   5815.893   0.0617 0.1832E+37
   5818.801   0.0643 0.1912E+37
   5821.710   0.0667 0.1989E+37
   5824.621   0.0689 0.2055E+37
   5827.533   0.0705 0.2106E+37
   5830.447   0.0715 0.2137E+37
   5833.362   0.0716 0.2144E+37
   5836.279   0.0710 0.2129E+37
   5839.197   0.0697 0.2092E+37
   5842.117   0.0679 0.2038E+37
   5845.038   0.0655 0.1970E+37
   5847.960   0.0629 0.1893E+37
   5850.884   0.0601 0.1811E+37
   5853.810   0.0571 0.1725E+37
   5856.737   0.0542 0.1639E+37
   5859.665   0.0512 0.1551E+37
   5862.595   0.0482 0.1462E+37
   5865.526   0.0452 0.1371E+37
   5868.459   0.0420 0.1278E+37
   5871.393   0.0389 0.1184E+37
   5874.329   0.0357 0.1089E+37
   5877.266   0.0326 0.9956E+36
   5880.205   0.0297 0.9067E+36
   5883.145   0.0270 0.8253E+36
   5886.086   0.0246 0.7548E+36
   5889.029   0.0227 0.6984E+36
   5891.974   0.0214 0.6588E+36
   5894.920   0.0207 0.6382E+36
   5897.867   0.0206 0.6374E+36
   5900.816   0.0212 0.6563E+36
   5903.767   0.0223 0.6935E+36
   5906.719   0.0240 0.7473E+36
   5909.672   0.0261 0.8144E+36
   5912.627   0.0285 0.8915E+36
   5915.583   0.0311 0.9747E+36
   5918.541   0.0338 0.1060E+37
   5921.500   0.0365 0.1144E+37
   5924.461   0.0390 0.1224E+37
   5927.423   0.0413 0.1298E+37
   5930.387   0.0433 0.1364E+37
   5933.352   0.0452 0.1423E+37
   5936.319   0.0467 0.1474E+37
   5939.287   0.0480 0.1518E+37
   5942.257   0.0491 0.1555E+37
   5945.228   0.0500 0.1585E+37
   5948.200   0.0507 0.1608E+37
   5951.174   0.0511 0.1623E+37
   5954.150   0.0512 0.1629E+37
   5957.127   0.0511 0.1626E+37
   5960.106   0.0507 0.1614E+37
   5963.086   0.0500 0.1594E+37
   5966.067   0.0490 0.1567E+37
   5969.050   0.0480 0.1535E+37
   5972.035   0.0468 0.1501E+37
   5975.021   0.0457 0.1466E+37
   5978.008   0.0446 0.1433E+37
   5980.997   0.0436 0.1403E+37
   5983.988   0.0428 0.1378E+37
   5986.980   0.0421 0.1358E+37
   5989.973   0.0415 0.1343E+37
   5992.968   0.0412 0.1333E+37
   5995.965   0.0410 0.1329E+37
   5998.963   0.0410 0.1332E+37
   6001.962   0.0413 0.1343E+37
   6004.963   0.0419 0.1365E+37
   6007.966   0.0428 0.1398E+37
   6010.970   0.0442 0.1444E+37
   6013.975   0.0458 0.1501E+37
   6016.982   0.0478 0.1567E+37
   6019.991   0.0499 0.1639E+37
   6023.001   0.0520 0.1711E+37
   6026.012   0.0540 0.1779E+37
   6029.025   0.0558 0.1839E+37
   6032.040   0.0572 0.1889E+37
   6035.056   0.0584 0.1929E+37
   6038.073   0.0593 0.1961E+37
   6041.092   0.0601 0.1991E+37
